Step,Temperature
0,300
1,299.93562154628
2,299.808814053992
3,299.619714588296
4,299.368518322655
5,299.055478317325
6,298.680905237188
7,298.24516700929
8,297.74868842047
9,297.191950655565
10,296.575490776707
11,295.899901144319
12,295.165828780473
13,294.373974675315
14,293.525093037359
15,292.619990488478
16,291.6595252045
17,290.644606002375
18,289.57619137492
19,288.455288474216
20,287.282952044802
21,286.060283307822
22,284.788428797387
23,283.468579156274
24,282.101967873974
25,280.689869977273
26,279.233600705142
27,277.734514121458
28,276.194001692322
29,274.613490830868
30,272.994443389515
31,271.338354137903
32,269.646749202765
33,267.921184472923
34,266.163243979615
35,264.374538226155
36,262.556702513334
37,260.7113952532
38,258.840296240153
39,256.94510490091
40,255.027538528998
41,253.089330516695
42,251.132228560634
43,249.157992841618
44,247.16839421533
45,245.165212388808
46,243.150234084706
47,241.125251203245
48,239.092058985497
49,237.052454166045
50,235.008233125941
51,232.961190068228
52,230.913115190724
53,228.865792847318
54,226.820999725557
55,224.780503059579
56,222.746058831907
57,220.719409988775
58,218.702284697946
59,216.696394584025
60,214.70343300508
61,212.725073394462
62,210.762967537474
63,208.818743920587
64,206.894006161147
65,204.990331377303
66,203.109268624298
67,201.252337381371
68,199.42102605067
69,197.6167905022
70,195.841052654903
71,194.095199095157
72,192.380579732559
73,190.698506500074
74,189.050252102327
75,187.437048802156
76,185.860087259782
77,184.320515405708
78,182.819437373103
79,181.357912487756
80,179.936954286943
81,178.557529605593
82,177.22055770782
83,175.926909480112
84,174.677406664794
85,173.472821156805
86,172.313874326727
87,171.201236504933
88,170.135526407717
89,169.117310595083
90,168.147103130062
91,167.225365177722
92,166.352504712839
93,165.528876284428
94,164.754780814139
95,164.030465469739
96,163.356123594373
97,162.731894707559
98,162.15786454803
99,161.63406516897
100,161.160475113184
101,160.737019647539
102,160.363571035683
103,160.039948881917
104,159.765920527381
105,159.541201496854
106,159.365456016523
107,159.238297580972
108,159.159289568677
109,159.127945914753
110,159.143731841509
111,159.206064641216
112,159.314314497747
113,159.467805358447
114,159.665815872649
115,159.907580381161
116,160.192289926617
117,160.519093314655
118,160.887098243261
119,161.295372456268
120,161.742944926919
121,162.228807125408
122,162.751914276149
123,163.311186662179
124,163.905510996911
125,164.533741784642
126,165.194702751567
127,165.887188290261
128,166.609964934412
129,167.361772861035
130,168.141327420989
131,168.947320697225
132,169.778423065227
133,170.633284795102
134,171.510537668042
135,172.408796601967
136,173.326661288743
137,174.262717854888
138,175.215540533999
139,176.183693341934
140,177.165731758399
141,178.160204413058
142,179.165654764735
143,180.180622801053
144,181.203646747782
145,182.233264739212
146,183.268016499924
147,184.306445020402
148,185.34709821565
149,186.388530630553
150,187.429305051672
151,188.467994114314
152,189.503181959905
153,190.533465811464
154,191.557457560231
155,192.573785314612
156,193.581094926202
157,194.578051518364
158,195.563340963003
159,196.535671323217
160,197.493774273345
161,198.436406509286
162,199.362351095781
163,200.270418796036
164,201.159449356562
165,202.028312749359
166,202.875910408105
167,203.701176390284
168,204.50307850074
169,205.280619384837
170,206.032837581554
171,206.758808521287
172,207.457645469817
173,208.128500449365
174,208.770565102845
175,209.383071480255
176,209.965292814501
177,210.516543553325
178,211.036182728641
179,211.523611236221
180,211.978272340205
181,212.399655493943
182,212.787294182119
183,213.140766971688
184,213.459697848049
185,213.743756507214
186,213.992658590342
187,214.206165850854
188,214.384086294182
189,214.526274246791
190,214.632630367407
191,214.7031016177
192,214.737681159403
193,214.736408207466
194,214.6993678405
195,214.626690739002
196,214.51855287376
197,214.375175146902
198,214.196822985176
199,213.98380587936
200,213.736476865676
201,213.455231964436
202,213.140509569358
203,212.792789782544
204,212.412593698377
205,212.000482658635
206,211.55705744932
207,211.082957449302
208,210.578859755346
209,210.045478244916
210,209.483562594582
211,208.893897274934
212,208.277300509831
213,207.634623180367
214,206.966747699386
215,206.27458686126
216,205.559082651631
217,204.821205028176
218,204.061950656218
219,203.282341629485
220,202.483424170906
221,201.66626731802
222,200.831961547516
223,199.981617383856
224,199.116364027449
225,198.23734793351
226,197.345731382305
227,196.442691017109
228,195.52941638839
229,194.607108490714
230,193.676978275043
231,192.740245160018
232,191.798135528737
233,190.851881233967
234,189.902718098545
235,188.951884407101
236,188.000619398691
237,187.05016177167
238,186.101748194914
239,185.156611800141
240,184.21598070005
241,183.281076534348
242,182.353113002619
243,181.433294408658
244,180.522814232521
245,179.622853717813
246,178.734580484383
247,177.859147122427
248,176.997689839246
249,176.15132714708
250,175.321158536622
251,174.508263200486
252,173.713698776513
253,172.938500111697
254,172.183678069313
255,171.450218374072
256,170.739080456603
257,170.051196358408
258,169.38746968948
259,168.748774580947
260,168.135954694239
261,167.549822276666
262,166.99115724984
263,166.460706337134
264,165.959182228207
265,165.487262797094
266,165.045590357158
267,164.634770970359
268,164.255373777356
269,163.907930384241
270,163.592934317232
271,163.310840498067
272,163.062064765492
273,162.846983453856
274,162.665933025784
275,162.519209746298
276,162.407069404045
277,162.32972707843
278,162.287356966519
279,162.28009223892
280,162.308024956356
281,162.371206059108
282,162.469645355693
283,162.603311591807
284,162.772132574732
285,162.975995321363
286,163.214746272642
287,163.488191550465
288,163.796097258824
289,164.138189835592
290,164.514156440395
291,164.923645399198
292,165.366266699403
293,165.841592505546
294,166.349157738736
295,166.888460698986
296,167.45896371683
297,168.060093858987
298,168.691243654728
299,169.351771877068
300,170.041004365544
300,170.041004365544
301,170.758207625247
302,171.502618430627
303,172.273471329804
304,173.069971660782
305,173.891296546398
306,174.736595905595
307,175.604993495132
308,176.495587990478
309,177.407454086922
310,178.33964362386
311,179.291186735296
312,180.261093029345
313,181.248352777617
314,182.251938131591
315,183.270804356499
316,184.303891075495
317,185.350123552584
318,186.408413954046
319,187.47766263038
320,188.55675942955
321,189.644585018755
322,190.740012189257
323,191.84190716747
324,192.949130966046
325,194.060540702399
326,195.174990929833
327,196.291334971071
328,197.408426245027
329,198.525119594939
330,199.640272592616
331,200.752746865076
332,201.861409402229
333,202.96513383466
334,204.062801730467
335,205.153303866711
336,206.235541465472
337,207.308427458644
338,208.370887698645
339,209.421862145904
340,210.460306082935
341,211.485191256885
342,212.495507016847
343,213.490261443283
344,214.468482428356
345,215.429218746898
346,216.371541086462
347,217.294543055288
348,218.197342157448
349,219.079080744907
350,219.938926933591
351,220.776075465454
352,221.589748565272
353,222.379196763904
354,223.14369968043
355,223.882566741375
356,224.595137886033
357,225.280784239721
358,225.938908739576
359,226.568946712888
360,227.170366424252
361,227.742669587437
362,228.285391823277
363,228.798103087998
364,229.280408059837
365,229.731946472323
366,230.152393410448
367,230.541459568913
368,230.898891465325
369,231.22447160321
370,231.518018598097
371,231.779387266564
372,232.008468674013
373,232.205190113344
374,232.369515063618
375,232.501443114633
376,232.601009838437
377,232.668286601258
378,232.703380344245
379,232.706433361444
380,232.677622991888
381,232.61716126241
382,232.52529452995
383,232.402303070947
384,232.248500625967
385,232.064233896803
386,231.849882021695
387,231.60585602501
388,231.3325982063
389,231.030581512258
390,230.700308859133
391,230.342312425874
392,229.9571529362
393,229.545418891715
394,229.107725759937
395,228.644715165154
396,228.157054042751
397,227.645433747222
398,227.110569146607
399,226.553197711197
400,225.974078550555
401,225.373991433664
402,224.753735802805
403,224.11412976011
404,223.456009035835
405,222.780225939493
406,222.087648296948
407,221.379158362105
408,220.655651724757
409,219.918036208387
410,219.167230770254
411,218.404164369504
412,217.62977482612
413,216.845007703647
414,216.050815162921
415,215.248154815571
416,214.437988577823
417,213.621281519993
418,212.799000731774
419,211.972114176885
420,211.141589544959
421,210.30839311275
422,209.473488625196
423,208.63783617892
424,207.802391102941
425,206.968102862409
426,206.13591396267
427,205.306758876758
428,204.481562981704
429,203.661241505424
430,202.846698495548
431,202.038825811082
432,201.238502126227
433,200.446591955929
434,199.663944702458
435,198.891393720874
436,198.129755405814
437,197.379828309612
438,196.642392297429
439,195.918207696715
440,195.208014495146
441,194.512531564435
442,193.832455909781
443,193.168461953388
444,192.521200836902
445,191.891299768962
446,191.279361399113
447,190.685963219739
448,190.111656996899
449,189.556968259498
450,189.022395791469
451,188.508411157287
452,188.015458303274
453,187.543953162201
454,187.094283292249
455,186.666807546762
456,186.26185581304
457,185.879728545088
458,185.520697190996
459,185.185003607578
460,184.87285946475
461,184.584446802875
462,184.319917757845
463,184.079394533835
464,183.862969411058
465,183.670704788378
466,183.502633268239
467,183.358757779492
468,183.239051726005
469,183.143459171994
470,183.071895065176
471,183.024245498058
472,183.000368000797
473,183.000091870236
474,183.023218517571
475,183.069521862083
476,183.138748756659
477,183.230619437066
478,183.344828017655
479,183.4810429957
480,183.638907795725
481,183.818041343592
482,184.018038658047
483,184.238471484151
484,184.478888949307
485,184.738818226881
486,185.017765242855
487,185.315215408951
488,185.630634342101
489,185.963468640776
490,186.313146683878
491,186.679079430892
492,187.060661244631
493,187.457270724479
494,187.868271564262
495,188.293013432697
496,188.73083284799
497,189.181054074154
498,189.642990024938
499,190.115943183516
500,190.599206543096
501,191.092064524585
502,191.593793921215
503,192.103664846991
504,192.620941686408
505,193.144884042249
506,193.674747693299
507,194.209785556901
508,194.749248634041
509,195.292386972814
510,195.838450616998
511,196.38669054261
512,196.936359610306
513,197.486713499608
514,198.037011631119
515,198.586518094017
516,199.134502543556
517,199.680241114867
518,200.223017301767
519,200.762122816365
520,201.296858465447
521,201.826535004394
522,202.350473957134
523,202.868008172232
524,203.378482861325
525,203.881257600659
526,204.375705630679
527,204.861212833879
528,205.337181333262
529,205.803030339414
530,206.258195183209
531,206.70212855747
532,207.134301149578
533,207.554202253303
534,207.961340318963
535,208.355243494323
536,208.735460167731
537,209.101559447506
538,209.453131618211
539,209.789788592094
540,210.111164309524
541,210.416915110531
542,210.706720083968
543,210.980281392151
544,211.237324561624
545,211.477598729561
546,211.700876884336
547,211.906956055891
548,212.095657479083
549,212.266826734518
550,212.420333857615
551,212.556073399449
552,212.673964473645
553,212.773950762958
554,212.856000504317
555,212.920106444602
556,212.966285747151
557,212.994579900474
558,213.005054562372
559,212.997799390881
560,212.972927848888
561,212.93057697961
562,212.870907126442
563,212.794101648471
564,212.700366640654
565,212.589930565296
566,212.46304388659
567,212.319978691866
568,212.16102825649
569,211.986506585309
570,211.796747957464
571,211.592106450855
572,211.372955408915
573,211.139686901217
574,210.8927111651
575,210.632456021648
576,210.35936627475
577,210.07390309746
578,209.776543393386
579,209.467779128938
580,209.148116669795
581,208.818076103147
582,208.478190519679
583,208.129005290095
584,207.771077341468
585,207.404974418694
586,207.031274336096
587,206.650564204163
588,206.263439657695
589,205.870504079371
590,205.472367803435
591,205.06964733104
592,204.662964532189
593,204.252945827278
594,203.840221388336
595,203.425424334061
596,203.009189929889
597,202.592154769363
598,202.174955939429
599,201.758230236565
600,201.342613380623
601,200.928739186807
602,200.517238768445
603,200.108739762048
604,199.703865538507
605,199.303234424914
606,198.907458940838
607,198.517145041534
608,198.13289137295
609,197.755288530999
610,197.384918331762
611,197.022353119793
612,196.668155051541
613,196.322875417491
614,195.987053988905
615,195.66121834492
616,195.345883254389
617,195.04155006669
618,194.748706101348
619,194.467824067815
620,194.19936152138
621,193.943760314526
622,193.701446078063
623,193.4728277286
624,193.258296968073
625,193.058227657363
626,192.872975932912
627,192.70287990392
628,192.548258204815
629,192.409409745699
630,192.286614411749
631,192.180132513626
632,192.090204003563
633,192.017048443539
634,191.960864767091
635,191.921831087693
636,191.900104508545
637,191.8958209684
638,191.909095127071
639,191.940020261217
640,191.988668189687
641,192.055089230132
642,192.139312166409
643,192.241344257013
644,192.361171274567
645,192.498757563222
646,192.654046114756
647,192.826958680216
648,193.017395903703
649,193.225237479072
650,193.450342347411
651,193.692548884923
652,193.951675178067
653,194.227519254967
654,194.519859335153
655,194.828454181293
656,195.153043408184
657,195.493347835055
658,195.849069857752
659,196.219893833668
660,196.605486506632
661,197.005497444215
662,197.419559465562
663,197.847289119022
664,198.288287191295
665,198.742139198686
666,199.208415919636
667,199.686673941054
668,200.176456186339
669,200.677292499523
670,201.188700248172
671,201.710184889237
672,202.241240599413
673,202.781350906959
674,203.329989304725
675,203.886619898796
676,204.450698060682
677,205.021671086694
678,205.598978869599
679,206.182054577359
680,206.770325323371
681,207.363212850638
682,207.960134224182
683,208.560502528956
684,209.163727521777
685,209.769216269371
686,210.37637419426
687,210.984605820092
688,211.593314905156
689,212.201905033869
690,212.80978067076
691,213.416348214688
692,214.021016443611
693,214.623196946153
694,215.222304935196
695,215.817759932038
696,216.408986416855
697,216.995414482563
698,217.576480491266
699,218.151627694623
700,218.720306875768
701,219.281976920963
702,219.83610538143
703,220.382169250461
704,220.919655557009
705,221.448061768007
706,221.966896293016
707,222.475678971683
708,222.973941665909
709,223.461228827439
710,223.937098018894
711,224.401120418091
712,224.852881163612
713,225.291979752794
714,225.718030493354
715,226.130662906855
716,226.529522107241
717,226.91426913951
718,227.284581324412
719,227.640152579137
720,227.980693712695
721,228.305932691345
722,228.615614893592
723,228.909503341449
724,229.187378906963
725,229.449040502025
726,229.694305239636
727,229.923008584398
728,230.135004468598
729,230.330165384987
730,230.508382470329
731,230.669565554884
732,230.813643200528
733,230.940562713549
734,231.05029012259
735,231.142810157459
736,231.218126187811
737,231.276260143867
738,231.317252406838
739,231.341161694328
740,231.348064935185
741,231.338057098523
742,231.311251010134
743,231.267777148881
744,231.207783428985
745,231.13143495449
746,231.0389137643
747,230.93041854578
748,230.806164344529
749,230.666382233965
750,230.511318990685
751,230.341236754069
752,230.156412643726
753,229.957138386383
754,229.743719923189
755,229.516476998516
756,229.275742713204
757,229.021863101995
758,228.755196684405
759,228.476113982954
760,228.184997051075
761,227.88223899456
762,227.568243462072
763,227.243424133646
764,226.908204207077
765,226.563015868118
766,226.208299761252
767,225.844504440162
768,225.472085818379
769,225.091506619453
770,224.703235813327
771,224.307748057304
772,223.905523110937
773,223.49704526752
774,223.082802796038
775,222.663287341085
776,222.238993286861
777,221.810417312009
778,221.378057561843
779,220.94241441115
780,220.503987775181
781,220.063276724767
782,219.620780809428
783,219.176997889931
784,218.732424301015
785,218.287554155623
786,217.842878568858
787,217.398885238393
788,216.956057920877
789,216.514875894089
790,216.075813441208
791,215.63933933122
792,215.205916321431
793,214.776000667238
794,214.350041628511
795,213.92848099537
796,213.51175263826
797,213.100282052765
798,212.694485921208
799,212.294771692746
800,211.901537174483
801,211.51517013611
802,211.136047912589
803,210.764537044193
804,210.400992918762
805,210.0457594401
806,209.699168702796
807,209.361540663757
808,209.033182892286
809,208.71439027327
810,208.405444212511
811,208.106613571159
812,207.818155391994
813,207.540310420364
814,207.273305344463
815,207.01735491679
816,206.772658878597
817,206.539402685033
818,206.317757428577
819,206.107879667595
820,205.909911381284
821,205.723979888783
822,205.55019778874
823,205.388662940809
824,205.239458444114
825,205.102652641906
826,204.978299138612
827,204.866436831449
828,204.767089978172
829,204.680268256225
830,204.60596685546
831,204.544166583785
832,204.49483397421
833,204.457921424204
834,204.433367351992
835,204.42109637032
836,204.421019467834
837,204.433034199698
838,204.457024891547
839,204.492862874872
840,204.540406730557
841,204.599502539193
842,204.66998414597
843,204.751673435364
844,204.844380630156
845,204.947904594169
846,205.062033136398
847,205.186543337746
848,205.321201893191
849,205.465765451287
850,205.619980975338
851,205.783586108238
852,205.956309537637
853,206.137871380858
854,206.327983570995
855,206.526350252717
856,206.73266818229
857,206.946627145662
858,207.16791035213
859,207.396194858169
860,207.631152002729
861,207.872447816779
862,208.11974346401
863,208.372695660245
864,208.630957105458
865,208.894176933642
866,209.162001142925
867,209.434073025923
868,209.710033611374
869,209.989522104631
870,210.272176323894
871,210.557633132892
872,210.845528879907
873,211.135499785112
874,211.427182394179
875,211.720214037675
876,212.014233152125
877,212.308879877833
878,212.603795882084
879,212.898626310113
880,213.193018751291
881,213.486622775508
882,213.779092523879
883,214.070086131036
884,214.359265887182
885,214.646298771052
886,214.93085680158
887,215.21261703331
888,215.491262926896
889,215.766484296245
890,216.037975975867
891,216.3054398304
892,216.568585346251
893,216.827128922357
894,217.080794476444
895,217.329313724755
896,217.57242642717
897,217.80988063518
898,218.041432915874
899,218.266848551168
900,218.485901761393
901,218.698375905263
902,218.904063664938
903,219.102767178087
904,219.294298214147
905,219.478478350958
906,219.655139064348
907,219.824121863893
908,219.985278378472
909,220.13847045749
910,220.283570259202
911,220.420460308586
912,220.549033550069
913,220.669193410908
914,220.780853800595
915,220.883939113358
916,220.978384269388
917,221.06413468645
918,221.14114625916
919,221.209385324048
920,221.268828607689
921,221.319463177103
922,221.361286367263
923,221.394305700454
924,221.418538782233
925,221.434013202701
926,221.440766437236
927,221.438845701365
928,221.428307818769
929,221.409219082515
930,221.381655095166
931,221.34570059932
932,221.301449300814
933,221.249003697198
934,221.188474880804
935,221.11998231667
936,221.043653647443
937,220.959624489145
938,220.868038197388
939,220.76904563552
940,220.662804923723
941,220.54948120494
942,220.429246403928
943,220.302278952156
944,220.168763533115
945,220.028890823395
946,219.882857214965
947,219.730864543686
948,219.573119810364
949,219.40983488785
950,219.241226241122
951,219.067514324837
952,218.888924116905
953,218.705684951879
954,218.518028208502
955,218.326188450643
956,218.130403961892
957,217.930915193958
958,217.727964840283
959,217.521797540761
960,217.312659594562
961,217.100798656547
