Step,Temperature
0,300
1,299.996374084096
2,299.992123111525
3,299.987247140671
4,299.981746235756
5,299.975620466835
6,299.9688699098
7,299.961494646374
8,299.953494764113
9,299.944870356404
10,299.935621522466
11,299.925748367344
12,299.915251001911
13,299.904129542869
14,299.892384112742
15,299.880014839879
16,299.867021858449
17,299.853405308444
18,299.839165335673
19,299.824302091762
20,299.808815734152
21,299.792706426099
22,299.775974336669
23,299.758619640738
24,299.740642518989
25,299.722043157912
26,299.7028217498
27,299.682978492746
28,299.662513590642
29,299.641427253179
30,299.61971969584
31,299.5973911399
32,299.574441812425
33,299.550871946265
34,299.526681780058
35,299.50187155822
36,299.476441530948
37,299.450391954214
38,299.423723089764
39,299.396435205113
40,299.368528573544
41,299.340003474105
42,299.310860191604
43,299.281099016608
44,299.250720245438
45,299.219724180166
46,299.188111128613
47,299.155881404345
48,299.123035326669
49,299.089573220631
50,299.055495417008
51,299.02080225231
52,298.985494068775
53,298.949571214361
54,298.913034042748
55,298.875882913331
56,298.838118191214
57,298.799740247213
58,298.760749457843
59,298.721146205321
60,298.680930877559
61,298.640103868159
62,298.598665576411
63,298.556616407285
64,298.513956771432
65,298.470687085174
66,298.426807770502
67,298.382319255073
68,298.337221972202
69,298.291516360861
70,298.245202865669
71,298.198281936893
72,298.15075403044
73,298.102619607852
74,298.053879136301
75,298.004533088585
76,297.954581943124
77,297.904026183951
78,297.852866300709
79,297.801102788647
80,297.748736148612
81,297.695766887045
82,297.642195515978
83,297.588022553021
84,297.533248521365
85,297.477873949773
86,297.42189937257
87,297.365325329646
88,297.308152366441
89,297.250381033947
90,297.192011888696
91,297.133045492759
92,297.073482413735
93,297.013323224749
94,296.952568504443
95,296.891218836973
96,296.829274811998
97,296.766737024679
98,296.703606075668
99,296.639882571104
100,296.575567122607
101,296.510660347269
102,296.44516286765
103,296.37907531177
104,296.312398313102
105,296.245132510566
106,296.17727854852
107,296.108837076757
108,296.039808750496
109,295.970194230374
110,295.899994182439
111,295.829209278144
112,295.757840194342
113,295.685887613272
114,295.613352222559
115,295.540234715202
116,295.46653578957
117,295.39225614939
118,295.317396503745
119,295.24195756706
120,295.165940059102
121,295.089344704965
122,295.012172235067
123,294.93442338514
124,294.856098896224
125,294.777199514657
126,294.697725992067
127,294.617679085367
128,294.537059556744
129,294.45586817365
130,294.374105708798
131,294.29177294015
132,294.20887065091
133,294.125399629516
134,294.041360669631
135,293.956754570135
136,293.871582135115
137,293.78584417386
138,293.699541500848
139,293.61267493574
140,293.525245303371
141,293.43725343374
142,293.348700162003
143,293.259586328463
144,293.16991277856
145,293.079680362865
146,292.988889937068
147,292.89754236197
148,292.805638503475
149,292.713179232577
150,292.620165425356
151,292.526597962966
152,292.432477731624
153,292.337805622604
154,292.242582532225
155,292.146809361843
156,292.050487017838
157,291.953616411612
158,291.85619845957
159,291.758234083117
160,291.659724208646
161,291.560669767526
162,291.461071696096
163,291.360930935653
164,291.260248432443
165,291.159025137647
166,291.057262007379
167,290.954960002667
168,290.852120089448
169,290.748743238558
170,290.644830425718
171,290.540382631527
172,290.435400841451
173,290.329886045811
174,290.223839239774
175,290.117261423343
176,290.010153601344
177,289.902516783417
178,289.794351984006
179,289.685660222347
180,289.576442522456
181,289.466699913123
182,289.356433427895
183,289.245644105068
184,289.134332987678
185,289.022501123486
186,288.91014956497
187,288.79727936931
188,288.683891598384
189,288.569987318747
190,288.45556760163
191,288.340633522919
192,288.225186163152
193,288.109226607501
194,287.992755945765
195,287.875775272356
196,287.758285686289
197,287.640288291169
198,287.521784195181
199,287.402774511075
200,287.283260356158
201,287.163242852282
202,287.042723125828
203,286.9217023077
204,286.800181533306
205,286.678161942555
206,286.555644679836
207,286.432630894011
208,286.309121738404
209,286.185118370783
210,286.060621953353
211,285.935633652744
212,285.810154639994
213,285.68418609054
214,285.557729184207
215,285.430785105192
216,285.303355042052
217,285.175440187695
218,285.047041739364
219,284.918160898626
220,284.788798871357
221,284.658956867733
222,284.528636102799
223,284.397837795289
224,284.266563167611
225,284.134813447004
226,284.002589864942
227,283.869893657118
228,283.736726063434
229,283.603088327987
230,283.468981699055
231,283.334407429086
232,283.19936677468
233,283.063860996582
234,282.927891360171
235,282.791459134435
236,282.654565591959
237,282.517212009923
238,282.379399669582
239,282.241129856253
240,282.1024038593
241,281.963222972125
242,281.823588492148
243,281.683501720798
244,281.542963963497
245,281.401976529648
246,281.26054073262
247,281.118657889734
248,280.976329322252
249,280.833556355358
250,280.690340318147
251,280.546682543614
252,280.402584369088
253,280.258047135313
254,280.113072186436
255,279.967660870896
256,279.82181454096
257,279.675534552706
258,279.528822266013
259,279.381679044542
260,279.234106255721
261,279.086105270738
262,278.937677464518
263,278.788824215714
264,278.639546906691
265,278.489846923509
266,278.339725655914
267,278.189184497318
268,278.038224844787
269,277.886848099027
270,277.735055664367
271,277.582848948746
272,277.430229363699
273,277.277198324338
274,277.123757249342
275,276.969907561356
276,276.815650686145
277,276.660988052576
278,276.505921093441
279,276.350451245019
280,276.194579947067
281,276.038308642801
282,275.881638778882
283,275.724571805402
284,275.567109175868
285,275.409252347184
286,275.251002779642
287,275.0923619369
288,274.933331285971
289,274.773912297206
290,274.614106444651
291,274.453915205287
292,274.293340059016
293,274.13238248939
294,273.971043983219
295,273.809326030562
296,273.647230124705
297,273.484757762149
298,273.321910442596
299,273.158689668927
300,272.995096947193
300,272.995096947193
301,272.831134361857
302,272.666804000198
303,272.502107377157
304,272.337046010775
305,272.171621422168
306,272.005835135519
307,271.839688678057
308,271.673183580042
309,271.50632137475
310,271.339103598458
311,271.171531790425
312,271.003607492877
313,270.835332250994
314,270.666707612888
315,270.497735129592
316,270.328416355041
317,270.158752846058
318,269.988746162335
319,269.818397866418
320,269.647709523693
321,269.476682702364
322,269.305318973444
323,269.13361991073
324,268.961587090797
325,268.789222092971
326,268.616526499321
327,268.443501894635
328,268.270149866411
329,268.096472005165
330,267.922469903755
331,267.748145157368
332,267.573499364161
333,267.398534124914
334,267.223251043013
335,267.047651724435
336,266.87173777849
337,266.695510816284
338,266.518972450704
339,266.342124298256
340,266.164967977613
341,265.987505109602
342,265.809737317859
343,265.631666228476
344,265.453293469982
345,265.274620673329
346,265.095649472203
347,264.916381502346
348,264.736818401543
349,264.556961810264
350,264.376813371311
351,264.196374729808
352,264.015647533181
353,263.834633431142
354,263.653334075668
355,263.471751120989
356,263.289886223569
357,263.107741042086
358,262.925317237742
359,262.742616473595
360,262.55964041455
361,262.376390727912
362,262.192869083567
363,262.009077153198
364,261.825016610128
365,261.640689130145
366,261.456096391096
367,261.271240072873
368,261.086121857392
369,260.900743428578
370,260.715106472345
371,260.529212676583
372,260.343063731135
373,260.156661327783
374,259.970007160533
375,259.78310292499
376,259.595950318341
377,259.408551040228
378,259.220906791859
379,259.03301927599
380,258.844890197478
381,258.656521262973
382,258.46791418091
383,258.279070661479
384,258.089992416917
385,257.900681160884
386,257.71113860846
387,257.521366476705
388,257.331366484355
389,257.141140351802
390,256.950689801074
391,256.760016555818
392,256.569122341282
393,256.3780088843
394,256.18667791327
395,255.995131158139
396,255.803370350382
397,255.611397222989
398,255.419213510441
399,255.226820948697
400,255.034221275176
401,254.841416228733
402,254.648407549648
403,254.455196979605
404,254.261786261954
405,254.068177141131
406,253.874371362646
407,253.68037067362
408,253.486176822487
409,253.291791558977
410,253.0972166341
411,252.902453800124
412,252.707504810557
413,252.512371420135
414,252.317055385057
415,252.121558462449
416,251.925882410344
417,251.730028988191
418,251.533999956833
419,251.337797077964
420,251.141422114108
421,250.944876829137
422,250.748162987977
423,250.551282356601
424,250.354236702002
425,250.157027792181
426,249.959657396124
427,249.762127283787
428,249.564439226078
429,249.366594994835
430,249.168596362812
431,248.970445103657
432,248.772142991898
433,248.57369180292
434,248.375093312951
435,248.17634929904
436,247.977461539041
437,247.778431811595
438,247.57926189611
439,247.379953572989
440,247.180508623119
441,246.980928827857
442,246.781215969499
443,246.581371831015
444,246.381398196035
445,246.181296848829
446,245.981069574286
447,245.780718157899
448,245.580244385745
449,245.379650044466
450,245.178936921252
451,244.978106803824
452,244.777161480411
453,244.576102739736
454,244.374932370996
455,244.173652163842
456,243.972263908365
457,243.770769395073
458,243.569170414874
459,243.367468759314
460,243.165666220045
461,242.963764588816
462,242.761765657951
463,242.559671220086
464,242.357483068147
465,242.15520299533
466,241.952832795085
467,241.750374261097
468,241.547829187267
469,241.345199367696
470,241.142486596662
471,240.939692668605
472,240.736819378109
473,240.533868519881
474,240.330841888735
475,240.127741279572
476,239.924568487364
477,239.721325307374
478,239.518013534657
479,239.314634964437
480,239.111191391778
481,238.90768461132
482,238.704116418063
483,238.500488606948
484,238.296802972839
485,238.093061310502
486,237.88926541459
487,237.685417079622
488,237.481518099967
489,237.277570270039
490,237.07357538385
491,236.869535234986
492,236.66545161703
493,236.461326323318
494,236.257161146925
495,236.052957880648
496,235.848718316986
497,235.644444248121
498,235.440137465901
499,235.235799761821
500,235.031432927003
501,234.827038752184
502,234.62261902769
503,234.418175543422
504,234.213710088837
505,234.009224452928
506,233.804720424211
507,233.600199790699
508,233.39566433989
509,233.191115858747
510,232.986556133678
511,232.781986950521
512,232.577410094521
513,232.372827350968
514,232.168240503605
515,231.96365133515
516,231.759061628575
517,231.554473165446
518,231.349887727547
519,231.145307095946
520,230.940733050395
521,230.736167370014
522,230.531611832812
523,230.327068216348
524,230.122538297372
525,229.918023851941
526,229.713526655134
527,229.509048481042
528,229.304591103006
529,229.100156293663
530,228.89574582454
531,228.691361466034
532,228.487004987787
533,228.282678158471
534,228.078382745769
535,227.87412051636
536,227.669893235899
537,227.465702669
538,227.261550579215
539,227.057438729574
540,226.853368880907
541,226.649342792932
542,226.445362225336
543,226.241428936112
544,226.037544682432
545,225.833711219938
546,225.629930302711
547,225.42620368397
548,225.222533115693
549,225.018920348606
550,224.815367132159
551,224.611875214513
552,224.408446342521
553,224.205082261708
554,224.001784716258
555,223.798555449193
556,223.595396201953
557,223.392308714387
558,223.189294725124
559,222.986355971366
560,222.783494188863
561,222.580711111901
562,222.37800847328
563,222.175388004297
564,221.972851434733
565,221.77040049283
566,221.568036905277
567,221.365762397191
568,221.163578692101
569,220.961487511929
570,220.759490576974
571,220.557589606133
572,220.355786316406
573,220.154082423052
574,219.952479639702
575,219.750979678099
576,219.549584248438
577,219.348295059167
578,219.147113817185
579,218.946042227401
580,218.745081993243
581,218.544234812451
582,218.343502387534
583,218.142886419673
584,217.942388601066
585,217.742010625589
586,217.541754185221
587,217.341620970027
588,217.141612668136
589,216.941730965732
590,216.74197754703
591,216.542354094262
592,216.342862287662
593,216.143503805446
594,215.944280323796
595,215.745193516846
596,215.54624505666
597,215.347436613219
598,215.148769854406
599,214.950246445982
600,214.751868051832
601,214.553636333432
602,214.355552950214
603,214.157619560038
604,213.959837817461
605,213.762209374672
606,213.564735882147
607,213.367418987904
608,213.170260337902
609,212.973261575821
610,212.776424343299
611,212.579750279398
612,212.383241020592
613,212.186898201266
614,211.990723453439
615,211.79471840675
616,211.598884688439
617,211.403223923337
618,211.207737733842
619,211.012427739907
620,210.817295559026
621,210.622342806379
622,210.427571094488
623,210.232982033194
624,210.038577229983
625,209.844358289797
626,209.650326815022
627,209.456484405469
628,209.262832658361
629,209.069373168313
630,208.876107526854
631,208.683037323809
632,208.490164146353
633,208.297489578231
634,208.105015201062
635,207.912742593317
636,207.720673330672
637,207.528808986332
638,207.337151130757
639,207.145701331645
640,206.954461154159
641,206.763432160425
642,206.572615909517
643,206.382013957927
644,206.191627859311
645,206.001459164466
646,205.811509421324
647,205.621780174928
648,205.432272967422
649,205.242989338214
650,205.053930823601
651,204.865098956951
652,204.676495268653
653,204.488121285921
654,204.299978533178
655,204.112068531838
656,203.924392800295
657,203.736952853907
658,203.549750205261
659,203.362786363599
660,203.176062834797
661,202.989581121921
662,202.803342724923
663,202.617349140632
664,202.431601862737
665,202.246102381772
666,202.060852185238
667,201.875852757316
668,201.691105578854
669,201.506612127621
670,201.322373878163
671,201.138392301781
672,200.954668866521
673,200.77120503716
674,200.588002275188
675,200.405062038798
676,200.222385782869
677,200.039974958953
678,199.857831015261
679,199.675955396647
680,199.494349544851
681,199.313014897974
682,199.131952890464
683,198.951164953616
684,198.770652515295
685,198.590416999928
686,198.410459828612
687,198.230782418853
688,198.051386184554
689,197.872272536398
690,197.693442881254
691,197.514898622816
692,197.3366411612
693,197.158671892478
694,196.9809922095
695,196.803603501546
696,196.626507154301
697,196.44970454985
698,196.273197066661
699,196.096986079572
700,195.921072959777
701,195.745459074815
702,195.570145788556
703,195.395134461186
704,195.220426449498
705,195.046023106273
706,194.871925780271
707,194.698135816816
708,194.524654557487
709,194.3514833401
710,194.1786234987
711,194.006076363543
712,193.833843261088
713,193.661925513981
714,193.490324441436
715,193.319041358545
716,193.14807757605
717,192.977434401117
718,192.807113137145
719,192.637115083644
720,192.467441536225
721,192.298093786803
722,192.129073123153
723,191.960380828894
724,191.792018183916
725,191.623986464146
726,191.45628694125
727,191.288920883485
728,191.121889555113
729,190.955194215806
730,190.788836121504
731,190.622816524115
732,190.4571366715
733,190.291797807465
734,190.126801171745
735,189.962148000208
736,189.797839524418
737,189.633876971619
738,189.470261565155
739,189.306994524241
740,189.144077064313
741,188.981510396299
742,188.819295726606
743,188.657434257826
744,188.495927188582
745,188.334775713088
746,188.173981021135
747,188.013544298512
748,187.853466726778
749,187.693749483252
750,187.534393741003
751,187.375400668836
752,187.216771431285
753,187.058507188946
754,186.900609097962
755,186.743078309443
756,186.585915970855
757,186.429123225634
758,186.272701212127
759,186.116651064407
760,185.960973912435
761,185.8056708818
762,185.650743093715
763,185.496191664999
764,185.342017708072
765,185.188222330944
766,185.034806637201
767,184.881771726001
768,184.729118692059
769,184.576848625637
770,184.424962612537
771,184.273461734089
772,184.122347067371
773,183.971619684872
774,183.82128065422
775,183.671331038623
776,183.521771896905
777,183.372604283358
778,183.223829248008
779,183.075447836026
780,182.927461087539
781,182.77987003865
782,182.632675721099
783,182.485879161792
784,182.339481383219
785,182.193483403083
786,182.047886234295
787,181.902690885317
788,181.75789835998
789,181.613509657468
790,181.469525772317
791,181.3259476944
792,181.182776408918
793,181.040012896396
794,180.897658132811
795,180.755713089301
796,180.614178732161
797,180.473056023274
798,180.332345919638
799,180.192049373358
800,180.05216733204
801,179.912700738464
802,179.773650530572
803,179.635017641624
804,179.496803000201
805,179.359007530006
806,179.221632149856
807,179.084677773869
808,178.948145311354
809,178.812035666809
810,178.676349739935
811,178.541088425575
812,178.406252613714
813,178.271843189515
814,178.137861033286
815,178.004307020477
816,177.87118202167
817,177.738486902567
818,177.606222523991
819,177.474389741871
820,177.342989407239
821,177.21202236622
822,177.081489460027
823,176.951391524952
824,176.82172939236
825,176.692503888904
826,176.563715836072
827,176.435366050175
828,176.307455343057
829,176.179984521536
830,176.052954386806
831,175.926365735338
832,175.800219359024
833,175.674516044563
834,175.54925657366
835,175.424441723014
836,175.300072264314
837,175.176148964235
838,175.052672584631
839,174.929643882122
840,174.807063608088
841,174.684932509075
842,174.563251326578
843,174.44202079704
844,174.321241652328
845,174.20091461876
846,174.081040417093
847,173.961619763491
848,173.842653369037
849,173.72414193972
850,173.606086176436
851,173.48848677498
852,173.371344426107
853,173.254659815393
854,173.138433623223
855,173.02266652493
856,172.907359190596
857,172.792512285413
858,172.678126469429
859,172.564202397309
860,172.450740718688
861,172.337742078043
862,172.225207114694
863,172.113136462794
864,172.001530751326
865,171.890390604098
866,171.779716639736
867,171.669509471899
868,171.559769708754
869,171.450497953143
870,171.341694803011
871,171.233360851015
872,171.125496684603
873,171.01810288601
874,170.911180032256
875,170.804728695415
876,170.698749442058
877,170.593242833252
878,170.488209425107
879,170.383649768159
880,170.279564408468
881,170.175953886749
882,170.072818737706
883,169.97015949151
884,169.867976672786
885,169.766270800599
886,169.665042389045
887,169.564291946951
888,169.464019977872
889,169.364226980086
890,169.264913446593
891,169.166079865239
892,169.067726718455
893,168.969854483254
894,168.872463631487
895,168.775554629706
896,168.679127939167
897,168.583184015824
898,168.487723310326
899,168.392746268012
900,168.29825332932
901,168.204244928561
902,168.11072149473
903,168.017683452314
904,167.925131220075
905,167.833065211448
906,167.741485834544
907,167.650393492142
908,167.559788581694
909,167.469671495441
910,167.380042620262
911,167.290902337469
912,167.202251023065
913,167.114089047808
914,167.026416777171
915,166.939234571328
916,166.85254278371
917,166.766341764804
918,166.680631859849
919,166.595413406281
920,166.510686737405
921,166.426452181171
922,166.342710060167
923,166.259460691622
924,166.176704387401
925,166.094441454009
926,166.012672192584
927,165.931396898898
928,165.850615863356
929,165.770329370545
930,165.690537700583
931,165.611241128217
932,165.532439921938
933,165.454134345282
934,165.376324656412
935,165.299011108149
936,165.222193947924
937,165.145873418116
938,165.070049755402
939,164.994723190759
940,164.919893950112
941,164.845562254007
942,164.771728317612
943,164.698392350716
944,164.625554557729
945,164.553215137683
946,164.481374284229
947,164.410032185641
948,164.339189024812
949,164.268844979256
950,164.199000221107
951,164.12965491712
952,164.060809228672
953,163.99246331176
954,163.924617317003
955,163.857271389642
956,163.790425667528
957,163.724080287162
958,163.658235379662
959,163.592891066751
960,163.528047466784
