Step,Temperature
0,300
1,299.808808961985
2,299.368487255661
3,298.680827529892
4,297.748543772665
5,296.575259398278
6,295.165491532991
7,293.524631571375
8,291.658922091648
9,289.575430233981
10,287.282017660904
11,284.787307233578
12,282.100646573567
13,279.232068592929
14,276.192249247217
15,272.99246271709
16,269.644534117932
17,266.1607900515
18,262.554007086787
19,258.837358490833
20,255.024359461641
21,251.128811033613
22,247.164742916872
23,243.14635551909
24,239.087961445233
25,235.003926631949
26,230.908611467685
27,226.816312097433
28,222.741202176395
29,218.697275357171
30,214.698288651501
31,210.757707084091
32,206.888649700489
33,203.103837144047
34,199.415541490394
35,195.835537760802
36,192.375057767402
37,189.04474677203
38,185.854622558435
39,182.814037417629
40,179.931643164776
41,177.215359320341
42,174.672344563131
43,172.308971533579
44,170.130805312392
45,168.142585302965
46,166.348210741014
47,164.750730168394
48,163.352334480706
49,162.154353784658
50,161.157257995629
51,160.36066122135
52,159.763329928731
53,159.36319469972
54,159.157365660707
55,159.142151457376
56,159.313081664789
57,159.664932484479
58,160.191755698151
59,160.886910686911
60,161.743099315571
61,162.752403662052
62,163.906326223226
63,165.195832462605
64,166.611395613916
65,168.143043446889
66,169.780406764635
67,171.512769413172
68,173.329119564372
69,175.21820205833
70,177.168571584386
71,179.168646392495
72,181.206762298477
73,183.271226814416
74,185.350373025157
75,187.432613146566
76,189.506491360358
77,191.560735679689
78,193.584308741475
79,195.566457229143
80,197.496759682581
81,199.365172488987
82,201.162073908555
83,202.87830583716
84,204.50521322789
85,206.034680946395
86,207.45916789511
87,208.771738308213
88,209.966089964564
89,211.036580625454
90,211.978246172442
91,212.786821843559
92,213.458759970257
93,213.991238040491
94,214.38216829937
95,214.630202621191
96,214.734733929037
97,214.695894067659
98,214.514548226328
99,214.192285935239
100,213.731408727689
101,213.134914537792
102,212.406478847437
103,211.55043275119
104,210.57173806423
105,209.475959589944
106,208.269234680844
107,206.958240254833
108,205.550157459319
109,204.052634131232
110,202.473745191333
111,200.82195130821
112,199.106055916786
113,197.335160831153
114,195.518620694304
115,193.665996441759
116,191.787008071293
117,189.891486863753
118,187.98932734338
119,186.090439195138
120,184.204699301369
121,182.341904219636
122,180.511723318408
123,178.723652713434
124,176.986970223454
125,175.310691625731
126,173.703528424225
127,172.173847189186
128,170.729630784312
129,169.378441592535
130,168.127386904186
131,166.98308667525
132,165.951643732791
133,165.038616572883
134,164.248994905877
135,163.587177973164
136,163.056955779988
137,162.661493318722
138,162.403317836673
139,162.284309221459
140,162.305693412544
141,162.468039006331
142,162.771256971757
143,163.214603445226
144,163.796685678142
145,164.515470992117
146,165.368298697452
147,166.351894917981
148,167.462390273924
149,168.695340293434
150,170.045748383468
151,171.508091334985
152,173.076347179649
153,174.744025255721
154,176.504198332982
155,178.349536623957
156,180.272343538539
157,182.264592965164
158,184.317967916321
159,186.423900374827
160,188.573612036822
161,190.758155888493
162,192.968458361016
163,195.195361811289
164,197.42966724342
165,199.662176927687
166,201.883736804265
167,204.085278434215
168,206.25786033316
169,208.392708504424
170,210.481255883634
171,212.51518062583
172,214.486443053337
173,216.387321042774
174,218.210443695069
175,219.948823180406
176,221.595884543557
177,223.145493468984
178,224.591981802054
179,225.930170669383
180,227.155391200843
181,228.263502698861
182,229.250908253448
183,230.114567692901
184,230.852007832802
185,231.461329975898
186,231.94121469842
187,232.290923857083
188,232.510299877244
189,232.599762290484
190,232.560301626324
191,232.393470635204
192,232.101372910085
193,231.686649029033
194,231.152460256132
195,230.50246993876
196,229.740822613394
197,228.872121045945
198,227.90140127825
199,226.834105789359
200,225.676054984194
201,224.433417077124
202,223.112676568398
203,221.720601526207
204,220.264209690702
205,218.750733675575
206,217.187585479109
207,215.582320405465
208,213.942600599391
209,212.276158353741
210,210.590759387415
211,208.894166225603
212,207.19410193205
213,205.498214365323
214,203.814041041824
215,202.14897479976
216,200.510230448873
217,198.904812599211
218,197.339484713457
219,195.820739574007
220,194.354771318803
221,192.947449133628
222,191.604292712699
223,190.330449701645
224,189.130674991505
225,188.009312103274
226,186.970276763559
227,186.017042640336
228,185.152629401857
229,184.379592989006
230,183.700018255792
231,183.115513910455
232,182.627209809083
233,182.235756637136
234,181.941327894669
235,181.743624161173
236,181.641879615495
237,181.634870807744
238,181.720927522516
239,181.89794571468
240,182.163402515281
241,182.51437309739
242,182.947549354689
243,183.459260311022
244,184.045494102386
245,184.701921405712
246,185.423920290514
247,186.206602255256
248,187.044839330197
249,187.933292133776
250,188.866438693007
251,189.838603957467
252,190.843989803358
253,191.876705347738
254,192.930797477831
255,194.00028146945
256,195.079171439541
257,196.161510559522
258,197.241400892246
259,198.313032673871
260,199.37071287323
261,200.40889298377
262,201.422194816591
263,202.405440630649
264,203.353671830907
265,204.262172782167
266,205.126498027884
267,205.942488013516
268,206.706289040584
269,207.414370326165
270,208.063539368263
271,208.650955433612
272,209.174141210088
273,209.63099256275
274,210.019786314214
275,210.33918613
276,210.588246376854
277,210.766413953509
278,210.873528217892
279,210.909818964583
280,210.875902408414
281,210.772775279315
282,210.601807023247
283,210.364730227481
284,210.063629362847
285,209.700927696126
286,209.279372687808
287,208.802019918581
288,208.272215470696
289,207.69357703788
290,207.069973789617
291,206.405505126178
292,205.704478411249
293,204.971385805984
294,204.21088033557
295,203.427751287195
296,202.626899141989
297,201.813310038546
298,200.992029988807
299,200.168139026861
300,199.346725250127
300,199.346725250127
301,198.532863451439
302,197.731574273112
303,196.947800616164
304,196.186393240811
305,195.452086719028
306,194.749476102998
307,194.08299439343
308,193.456890932002
309,192.875210912748
310,192.341775954807
311,191.860165870149
312,191.433701715604
313,191.065430081607
314,190.758110213639
315,190.5141994182
316,190.335842319234
317,190.224863266401
318,190.182756755885
319,190.210681669964
320,190.30945677213
321,190.479557890874
322,190.721116727677
323,191.033921384226
324,191.417418551085
325,191.870717334231
326,192.392594716061
327,192.981502585192
328,193.635576285885
329,194.352644664739
330,195.130241528434
331,195.965618459036
332,196.855758915022
333,197.797393528214
334,198.787016565851
335,199.820903380831
336,200.895128817226
337,202.005586524056
338,203.148008958683
339,204.317988040052
340,205.510996402997
341,206.722409004432
342,207.947524976343
343,209.181589863186
344,210.419819148823
345,211.657418486465
346,212.889606373805
347,214.111637892794
348,215.318824865489
349,216.506557509128
350,217.670325243519
351,218.805736626777
352,219.908539405914
353,220.974639443639
354,222.000117229254
355,222.981244885188
356,223.914503186028
357,224.796595926531
358,225.624463063303
359,226.395293299226
360,227.106535209475
361,227.755907076811
362,228.341405367018
363,228.861311831555
364,229.314199249533
365,229.698935735543
366,230.014687616962
367,230.260920946809
368,230.437401613504
369,230.544193979824
370,230.581658144935
371,230.550445939847
372,230.451495530063
373,230.28602475027
374,230.05552320883
375,229.761743128733
376,229.406689097345
377,228.992606756498
378,228.521970473023
379,227.997470026542
380,227.421996443023
381,226.798627032537
382,226.130609664351
383,225.421346464834
384,224.674376933578
385,223.893360580969
386,223.082059205003
387,222.244318826468
388,221.384051255669
389,220.505215478058
390,219.611801691413
391,218.707810504252
392,217.797233236076
393,216.884037285332
394,215.972147576062
395,215.065428728575
396,214.167668556379
397,213.282561870688
398,212.413694879579
399,211.564530258994
400,210.738392994194
401,209.938457066765
402,209.167732939921
403,208.429055969911
404,207.725075796868
405,207.058245657527
406,206.430818592911
407,205.844832824258
408,205.302106644877
409,204.804239344052
410,204.352601000007
411,203.948331076329
412,203.592336352442
413,203.285290055908
414,203.027632091638
415,202.819570331446
416,202.661082973277
417,202.551921942023
418,202.491617372723
419,202.479483036688
420,202.514622649016
421,202.595937117815
422,202.722132691904
423,202.891729860286
424,203.103072989973
425,203.354340665002
426,203.643556700931
427,203.968601672156
428,204.327224948339
429,204.717057224696
430,205.135623391776
431,205.580355733433
432,206.048607286884
433,206.537665454007
434,207.044765756598
435,207.567105491047
436,208.101857534975
437,208.646183889202
438,209.197249087129
439,209.752232574672
440,210.30834463791
441,210.862836442366
442,211.41301094746
443,211.956237690887
444,212.489962661025
445,213.011719022003
446,213.519137337596
447,214.009955155312
448,214.482025695409
449,214.933326055907
450,215.361964565685
451,215.766187460952
452,216.144384733859
453,216.495095268762
454,216.817011199001
455,217.108981312971
456,217.370013792589
457,217.599278076391
458,217.796105946221
459,217.959991852692
460,218.090592428565
461,218.187725193865
462,218.251366545112
463,218.281649073297
464,218.278858126098
465,218.243427754705
466,218.175935991511
467,218.077099531508
468,217.947767853697
469,217.788916822943
470,217.601641819784
471,217.387150418656
472,217.146754676379
473,216.881863074603
474,216.593972185146
475,216.284658024432
476,215.955566979392
477,215.608407606435
478,215.244941049041
479,214.866971338194
480,214.476336963144
481,214.074901478266
482,213.664544465313
483,213.247152556466
484,212.824610584913
485,212.398792992894
486,211.971555432036
487,211.544726695111
488,211.120100976675
489,210.699430275432
490,210.284417375153
491,209.876709203936
492,209.477890004521
493,209.089476952188
494,208.712913848442
495,208.349565135662
496,208.000713024703
497,207.667553090351
498,207.351190841793
499,207.052638822429
500,206.77281423542
501,206.512537035376
502,206.272528579334
503,206.053410788191
504,205.855705746208
505,205.679835818468
506,205.526124245613
507,205.39479616598
508,205.285980102554
509,205.199709880208
510,205.135926868706
511,205.094482728552
512,205.075141813405
513,205.07758663653
514,205.10141900996
515,205.146163741866
516,205.211275586698
517,205.296141377402
518,205.400085062705
519,205.522373257643
520,205.662219332345
521,205.818787319716
522,205.991198527677
523,206.178536596729
524,206.379851793035
525,206.594166940526
526,206.820480701772
527,207.057773654061
528,207.30501441687
529,207.561162610111
530,207.825174077802
531,208.096005386077
532,208.372618106268
533,208.653982958982
534,208.939083755667
535,209.226921094108
536,209.516515832097
537,209.806912370895
538,210.097181648331
539,210.386423868591
540,210.673771015354
541,210.958389116009
542,211.239480219114
543,211.51628409587
544,211.788079723418
545,212.054186506444
546,212.313965244175
547,212.566818836008
548,212.812192783325
549,213.049575480748
550,213.278498250254
551,213.498534844802
552,213.709302184821
553,213.91045929085
554,214.10170514816
555,214.282779619765
556,214.453462538844
557,214.613571771537
558,214.762962362194
559,214.90152523834
560,215.029185842302
561,215.145902707017
562,215.251666001136
563,215.346496048263
564,215.430441836591
565,215.50357948037
566,215.566010707103
567,215.617861425816
568,215.659280071779
569,215.690436845121
570,215.711521709337
571,215.722744597271
572,215.724331177407
573,215.716522950351
574,215.699578901378
575,215.673771598183
576,215.639387181324
577,215.596724613698
578,215.546094991167
579,215.487820979796
580,215.422236309128
581,215.349685368419
582,215.27052293499
583,215.185113922625
584,215.093833204796
585,214.997065524882
586,214.895205487302
587,214.788657543728
588,214.677835775554
589,214.563164803612
590,214.445080036128
591,214.324025804151
592,214.20045691178
593,214.074839638573
594,213.947650536338
595,213.819376904688
596,213.690516821448
597,213.561579160196
598,213.4330834783
599,213.3055598339
600,213.179548582728
601,213.055600047964
602,212.934274091952
603,212.816139556199
604,212.701773612017
605,212.591760971534
606,212.486692961245
607,212.38716650306
608,212.293782937583
609,212.207146702678
610,212.127863892343
611,212.056540649386
612,211.993781438286
613,211.940187192208
614,211.896353339884
615,211.862867712292
616,211.840308320521
617,211.829241008078
618,211.830217027381
619,211.843770533118
620,211.87041596245
621,211.910645422284
622,211.964926015512
623,212.03369705898
624,212.117367055801
625,212.216311746266
626,212.330870852034
627,212.461344799299
628,212.607992871975
629,212.771029912974
630,212.950625154752
631,213.146898988132
632,213.359919106802
633,213.589700448398
634,213.836203116301
635,214.099329678117
636,214.378923892735
637,214.674769288621
638,214.986587997773
639,215.31403977481
640,215.656721334918
641,216.014165914641
642,216.385843078577
643,216.771158910386
644,217.16945644974
645,217.580016446014
646,218.002058404803
647,218.434741928651
648,218.877168416267
649,219.328383082673
650,219.787377267419
651,220.253091090741
652,220.724416383223
653,221.200199936734
654,221.679247065634
655,222.160325391969
656,222.642168937568
657,223.123482500659
658,223.602946267994
659,224.079220630365
660,224.550951226761
661,225.016774136737
662,225.475321231971
663,225.925225733266
664,226.365127845858
665,226.79368045729
666,227.209554942794
667,227.611447010595
668,227.998082502461
669,228.368223204561
670,228.72067264151
671,229.054281761742
672,229.367954502504
673,229.660653216958
674,229.931403963854
675,230.179301599823
676,230.403514629215
677,230.603289805864
678,230.77795644195
679,230.926930449102
680,231.049718028861
681,231.145919031145
682,231.215229918857
683,231.257446320485
684,231.272465219968
685,231.260286699003
686,231.221015240855
687,231.154860568711
688,231.0621380202
689,230.943268447932
690,230.798777638192
691,230.629295264767
692,230.435552460852
693,230.218382562394
694,229.978716613282
695,229.717578717367
696,229.436085318337
697,229.135440386186
698,228.816931068825
699,228.481922951981
700,228.131854866651
701,227.76823321775
702,227.392626389091
703,227.006658599926
704,226.612002955997
705,226.210374472332
706,225.803523132296
707,225.39322671326
708,224.98128326553
709,224.569503387361
710,224.159702393274
711,223.753692449206
712,223.353274611001
713,222.960230875003
714,222.576316253422
715,222.20325094426
716,221.842712601721
717,221.496328715012
718,221.165668814017
719,220.852237206747
720,220.557466345286
721,220.282710182102
722,220.029237566846
723,219.798226034079
724,219.590756210261
725,219.407806502188
726,219.250248224258
727,219.118841210295
728,219.014229906822
729,218.936939922654
730,218.887375114169
731,218.865815231025
732,218.872414120173
733,218.907198427409
734,218.970066908443
735,219.060790377316
736,219.179012168112
737,219.324249176962
738,219.495893481754
739,219.69321459166
740,219.915362224269
741,220.161369613688
742,220.430157429918
743,220.720538211937
744,221.031221264896
745,221.360818072468
746,221.707848220285
747,222.070745698555
748,222.44786565357
749,222.837491553092
750,223.237842656523
751,223.647081821484
752,224.063323625683
753,224.48464273527
754,224.909082454221
755,225.334663469324
756,225.759392756584
757,226.181272560347
758,226.598309426812
759,227.008523256561
760,227.409956343042
761,227.800682211264
762,228.178815458059
763,228.542518499634
764,228.890010790545
765,229.219579640362
766,229.529584077767
767,229.818464511563
768,230.084751753018
769,230.32707173736
770,230.544152839434
771,230.734832033466
772,230.898061272967
773,231.032910918214
774,231.138575522175
775,231.214379042165
776,231.259776846999
777,231.274359233846
778,231.25785385604
779,231.210127511014
780,231.131187286654
781,231.021181145783
782,230.880397895748
783,230.709266482476
784,230.508354604646
785,230.278366804258
786,230.020141946411
787,229.734650043215
788,229.422988491869
789,229.086377740735
790,228.726156414819
791,228.343775898195
792,227.940794398743
793,227.5188705672
794,227.079756573303
795,226.625290758265
796,226.157389985187
797,225.678041583122
798,225.189294957366
799,224.693252880219
800,224.192062542296
801,223.687906443658
802,223.182993094508
803,222.679547530244
804,222.179801774856
805,221.68598528158
806,221.2003153914
807,220.724987754908
808,220.26216687225
809,219.813976826054
810,219.382492109011
811,218.969728658511
812,218.577635191845
813,218.20808481742
814,217.862866913598
815,217.543679464355
816,217.252121758056
817,216.989687468537
818,216.757758258897
819,216.557597884089
820,216.390346797201
821,216.25701724151
822,216.158488537184
823,216.095505023064
824,216.068671176108
825,216.078448713348
826,216.125156831743
827,216.208969499511
828,216.329914965925
829,216.487877326624
830,216.68259439416
831,216.913659973459
832,217.180528291969
833,217.482513881692
834,217.818795577504
835,218.188420282995
836,218.590307300974
837,219.023253267008
838,219.485937617749
839,219.976928490863
840,220.494689177637
841,221.037585001199
842,221.603890615511
843,222.191797657025
844,222.799422765165
845,223.424815295726
846,224.065968589644
847,224.720825347837
848,225.387286864768
849,226.063225412067
850,226.746490896003
851,227.434920846403
852,228.126349800196
853,228.818618656264
854,229.509583974626
855,230.197127127685
856,230.879163330297
857,231.553650502944
858,232.218597918036
859,232.872074492982
860,233.512216176351
861,234.137236372902
862,234.745429568101
863,235.335178761529
864,235.904965122447
865,236.45337236407
866,236.979089443007
867,237.48091801693
868,237.957779123557
869,238.408713653038
870,238.832886810336
871,239.229590834997
872,239.598247217853
873,239.938408214671
874,240.249757810206
875,240.532112058745
876,240.785418792548
877,241.009756747585
878,241.205334097036
879,241.372486387562
880,241.511673880399
881,241.623478372332
882,241.708599462016
883,241.767850283473
884,241.802152722241
885,241.812532191655
886,241.800111927661
887,241.766106888362
888,241.711817289527
889,241.638623363569
890,241.547973157591
891,241.441378506927
892,241.320410544432
893,241.186686793085
894,241.041864744318
895,240.887633603813
896,240.725705917605
897,240.557809161888
898,240.385677316926
899,240.211042474699
900,240.03562650252
901,239.861132762524
902,239.689237998127
903,239.521584357021
904,239.359771686233
905,239.205350062604
906,239.059812529049
907,238.92458742819
908,238.801034759132
909,238.690436526245
910,238.593990518662
911,238.51280886133
912,238.447910104689
913,238.400215377256
914,238.370544383646
915,238.359611975452
916,238.36802504944
917,238.396280019181
918,238.444760908828
919,238.513737898976
920,238.603366411543
921,238.713686268917
922,238.84462388473
923,238.995990189413
924,239.167482030016
925,239.358686746571
926,239.569081941627
927,239.798037828354
928,240.044823582593
929,240.308608790186
930,240.588465545675
931,240.883376073292
932,241.192236564502
933,241.513862446088
934,241.846994007722
935,242.190302284092
936,242.542395260107
937,242.901824359518
938,243.267091083703
939,243.636653877665
940,244.00893517369
941,244.382328553642
942,244.755205965956
943,245.125925067637
944,245.49283656673
945,245.854291554913
946,246.208648825744
947,246.554282069957
948,246.889587041351
949,247.21298855422
950,247.522947331148
951,247.817966676903
952,248.096598856586
953,248.357451343433
954,248.599192747546
955,248.820558470978
956,249.020356021253
957,249.197469956118
958,249.350866613218
959,249.479598356706
960,249.582807464353
